 % time (yr) / surface air temperature (degrees C)
       0.500    7.496652
       1.500   10.565524
       2.500   12.417494
       3.500   13.663860
       4.500   14.572745
       5.500   15.281056
       6.500   15.861471
       7.500   16.350905
       8.500   16.771743
       9.500   17.139691
      10.500   17.466161
      11.500   17.760623
      12.500   18.027167
      13.500   18.270688
      14.500   18.493300
      15.500   18.698492
      16.500   18.885423
      17.500   19.057051
      18.500   19.216315
      19.500   19.363585
      21.500   19.627706
      23.500   19.856130
      25.500   20.056709
      27.500   20.233055
      29.500   20.388377
      31.500   20.530647
      33.500   20.664376
      35.500   20.788393
      37.500   20.901717
      39.500   21.001457
      41.500   21.091034
      43.500   21.172449
      45.500   21.248981
      47.500   21.321233
      49.500   21.389735
      51.500   21.455199
      53.500   21.518392
      55.500   21.579412
      57.500   21.637452
      59.500   21.692040
      61.500   21.744090
      63.500   21.792944
      65.500   21.838685
      67.500   21.881320
      69.500   21.921438
      71.500   21.959520
      73.500   21.995736
      75.500   22.029691
      77.500   22.061494
      79.500   22.091380
      81.500   22.119624
      83.500   22.146156
      85.500   22.171112
      87.500   22.194698
      89.500   22.215941
      91.500   22.235543
      93.500   22.253555
      95.500   22.269619
      97.500   22.285043
      99.500   22.299891
     104.500   22.334700
     109.500   22.367786
     114.500   22.398648
     119.500   22.428163
     124.500   22.457272
     129.500   22.484598
     134.500   22.509457
     139.500   22.532991
     144.500   22.555349
     149.500   22.576076
     154.500   22.593189
     159.500   22.607279
     164.500   22.620547
     169.500   22.633418
     174.500   22.646275
     179.500   22.659111
     184.500   22.671496
     189.500   22.683283
     194.500   22.694010
     199.500   22.704283
     204.500   22.713916
     209.500   22.722936
     214.500   22.731406
     219.500   22.739461
     224.500   22.747092
     229.500   22.754019
     234.500   22.760631
     239.500   22.767019
     244.500   22.772852
     249.500   22.778332
     254.500   22.783433
     259.500   22.788331
     264.500   22.792994
     269.500   22.797374
     274.500   22.801210
     279.500   22.805131
     284.500   22.808659
     289.500   22.811927
     294.500   22.815253
     299.500   22.818391
     304.500   22.821404
     309.500   22.824213
     314.500   22.826850
     319.500   22.829375
     324.500   22.829727
     329.500   22.833080
     334.500   22.837348
     339.500   22.836080
     344.500   22.838976
     349.500   22.843562
     354.500   22.841339
     359.500   22.844988
     364.500   22.848138
     369.500   22.846099
     374.500   22.850108
     379.500   22.852149
     384.500   22.850024
     389.500   22.853136
     394.500   22.856692
     399.500   22.853264
     404.500   22.855601
     409.500   22.858787
     414.500   22.857567
     419.500   22.857629
     424.500   22.860051
     429.500   22.862107
     434.500   22.860406
     439.500   22.861447
     444.500   22.863078
     449.500   22.864076
     454.500   22.863955
     459.500   22.864316
     464.500   22.865203
     469.500   22.865719
     474.500   22.866035
     479.500   22.866391
     484.500   22.866823
     489.500   22.867263
     494.500   22.866489
     499.500   22.866897
     504.500   22.869162
     509.500   22.869181
     514.500   22.866896
     519.500   22.868771
     524.500   22.870263
     529.500   22.872002
     534.500   22.869263
     539.500   22.869686
     544.500   22.870904
     549.500   22.871327
     554.500   22.871379
     559.500   22.871652
     564.500   22.872041
     569.500   22.872345
     574.500   22.872565
     579.500   22.872778
     584.500   22.873027
     589.500   22.873304
     594.500   22.873564
     599.500   22.873783
     604.500   22.873983
     609.500   22.874174
     614.500   22.874391
     619.500   22.874243
     624.500   22.874354
     629.500   22.874582
     634.500   22.874827
     639.500   22.875053
     644.500   22.875298
     649.500   22.875523
     654.500   22.875735
     659.500   22.875931
     664.500   22.876138
     669.500   22.876344
     674.500   22.876559
     679.500   22.876758
     684.500   22.876657
     689.500   22.876838
     694.500   22.877012
     699.500   22.877188
     704.500   22.877377
     709.500   22.877581
     714.500   22.877764
     719.500   22.877957
     724.500   22.878135
     729.500   22.878319
     734.500   22.878499
     739.500   22.878679
     744.500   22.878863
     749.500   22.879018
     754.500   22.879170
     759.500   22.879247
     764.500   22.879483
     769.500   22.879660
     774.500   22.879833
     779.500   22.880000
     784.500   22.880136
     789.500   22.880300
     794.500   22.880445
     799.500   22.880619
     804.500   22.880760
     809.500   22.880929
     814.500   22.881056
     819.500   22.881224
     824.500   22.881355
     829.500   22.881515
     834.500   22.881656
     839.500   22.881813
     844.500   22.881949
     849.500   22.882111
     854.500   22.882246
     859.500   22.882211
     864.500   22.882407
     869.500   22.882599
     874.500   22.882836
     879.500   22.883125
     884.500   22.883374
     889.500   22.883602
     894.500   22.883781
     899.500   22.883949
     904.500   22.884097
     909.500   22.884261
     914.500   22.884404
     919.500   22.884560
     924.500   22.884688
     929.500   22.884849
     934.500   22.884993
     939.500   22.885150
     944.500   22.885288
     949.500   22.885440
     954.500   22.885575
     959.500   22.885734
     964.500   22.885875
     969.500   22.886030
     974.500   22.886163
     979.500   22.886312
     984.500   22.886447
     989.500   22.886597
     994.500   22.886717
     999.500   22.886863
    1019.500   22.887392
    1039.500   22.888017
    1059.500   22.888572
    1079.500   22.889142
    1099.500   22.889690
    1119.500   22.890084
    1139.500   22.890682
    1159.500   22.891268
    1179.500   22.891828
    1199.500   22.892394
    1219.500   22.892960
    1239.500   22.893519
    1259.500   22.894039
    1279.500   22.894500
    1299.500   22.894968
    1319.500   22.895451
    1339.500   22.895935
    1359.500   22.896419
    1379.500   22.896936
    1399.500   22.897436
    1419.500   22.897913
    1439.500   22.898263
    1459.500   22.898943
    1479.500   22.899441
    1499.500   22.899949
    1519.500   22.900436
    1539.500   22.900919
    1559.500   22.901376
    1579.500   22.901821
    1599.500   22.902277
    1619.500   22.902714
    1639.500   22.903147
    1659.500   22.903596
    1679.500   22.904039
    1699.500   22.903968
    1719.500   22.904541
    1739.500   22.904967
    1759.500   22.905358
    1779.500   22.905856
    1799.500   22.906360
    1819.500   22.906728
    1839.500   22.907082
    1859.500   22.907416
    1879.500   22.907772
    1899.500   22.908161
    1919.500   22.908535
    1939.500   22.908920
    1959.500   22.909271
    1979.500   22.909621
    1999.500   22.909992
    2049.500   22.911663
    2099.500   22.909131
    2149.500   22.914998
    2199.500   22.915218
    2249.500   22.914669
    2299.500   22.916116
    2349.500   22.918488
    2399.500   22.915054
    2449.500   22.920151
    2499.500   22.920379
    2549.500   22.920999
    2599.500   22.920459
    2649.500   22.920834
    2699.500   22.921571
    2749.500   22.922271
    2799.500   22.922943
    2849.500   22.923613
    2899.500   22.924232
    2949.500   22.924890
    2999.500   22.925519
    3049.500   22.926129
    3099.500   22.926709
    3149.500   22.927287
    3199.500   22.927642
    3249.500   22.928175
    3299.500   22.928472
    3349.500   22.928617
    3399.500   22.929243
    3449.500   22.929817
    3499.500   22.930355
    3549.500   22.930829
    3599.500   22.931300
    3649.500   22.931761
    3699.500   22.932206
    3749.500   22.932629
    3799.500   22.933045
    3849.500   22.933414
    3899.500   22.933837
    3949.500   22.934204
    3999.500   22.934468
    4049.500   22.934812
    4099.500   22.935159
    4149.500   22.935499
    4199.500   22.935824
    4249.500   22.936167
    4299.500   22.936475
    4349.500   22.936770
    4399.500   22.937053
    4449.500   22.937328
    4499.500   22.937595
    4549.500   22.937845
    4599.500   22.938104
    4649.500   22.938351
    4699.500   22.938585
    4749.500   22.938814
    4799.500   22.939035
    4849.500   22.939249
    4899.500   22.939456
    4949.500   22.939671
    4999.500   22.939865
    5049.500   22.940058
    5099.500   22.940242
    5149.500   22.940422
    5199.500   22.940604
    5249.500   22.940771
    5299.500   22.940932
    5349.500   22.941090
    5399.500   22.941243
    5449.500   22.941391
    5499.500   22.941536
    5549.500   22.941676
    5599.500   22.941814
    5649.500   22.941947
    5699.500   22.942077
    5749.500   22.942206
    5799.500   22.942330
    5849.500   22.942449
    5899.500   22.942565
    5949.500   22.942676
    5999.500   22.942786
    6049.500   22.942892
    6099.500   22.942995
    6149.500   22.943095
    6199.500   22.943192
    6249.500   22.943286
    6299.500   22.943393
    6349.500   22.943483
    6399.500   22.943565
    6449.500   22.943646
    6499.500   22.943726
    6549.500   22.943805
    6599.500   22.943878
    6649.500   22.943952
    6699.500   22.944024
    6749.500   22.944094
    6799.500   22.944162
    6849.500   22.944224
    6899.500   22.944289
    6949.500   22.944353
    6999.500   22.944415
    7049.500   22.944475
    7099.500   22.944533
    7149.500   22.944589
    7199.500   22.944643
    7249.500   22.944696
    7299.500   22.944747
    7349.500   22.944797
    7399.500   22.944845
    7449.500   22.944891
    7499.500   22.944937
    7549.500   22.944981
    7599.500   22.945024
    7649.500   22.945066
    7699.500   22.945106
    7749.500   22.945145
    7799.500   22.945232
    7849.500   22.945479
    7899.500   22.945455
    7949.500   22.945630
    7999.500   22.945539
    8049.500   22.945517
    8099.500   22.945518
    8149.500   22.945529
    8199.500   22.945545
    8249.500   22.945564
    8299.500   22.945585
    8349.500   22.945606
    8399.500   22.945628
    8449.500   22.945649
    8499.500   22.945670
    8549.500   22.945690
    8599.500   22.945710
    8649.500   22.945730
    8699.500   22.945748
    8749.500   22.945767
    8799.500   22.945785
    8849.500   22.945802
    8899.500   22.945819
    8949.500   22.945835
    8999.500   22.945851
    9049.500   22.945867
    9099.500   22.945882
    9149.500   22.945896
    9199.500   22.945910
    9249.500   22.945924
    9299.500   22.945937
    9349.500   22.945949
    9399.500   22.945962
    9449.500   22.945974
    9499.500   22.945985
    9549.500   22.945997
    9599.500   22.946007
    9649.500   22.946018
    9699.500   22.946028
    9749.500   22.946038
    9799.500   22.946048
    9849.500   22.946057
    9899.500   22.946066
    9949.500   22.946075
    9999.500   22.946083
