 % time (yr) / mean (land) surface air temperature (degrees C)
       0.500    6.124928
       1.500    8.618403
       2.500   10.195491
       3.500   11.254994
       4.500   12.018083
       5.500   12.602057
       6.500   13.073731
       7.500   13.467878
       8.500   13.804043
       9.500   14.094665
      10.500   14.350426
      11.500   14.581491
      12.500   14.790600
      13.500   14.983446
      14.500   15.160549
      15.500   15.325432
      16.500   15.474878
      17.500   15.612612
      18.500   15.741845
      19.500   15.861213
      21.500   16.075804
      23.500   16.260438
      25.500   16.422360
      27.500   16.563386
      29.500   16.687158
      31.500   16.803285
      33.500   16.914843
      35.500   17.020267
      37.500   17.118158
      39.500   17.206394
      41.500   17.288860
      43.500   17.365779
      45.500   17.439215
      47.500   17.509384
      49.500   17.576365
      51.500   17.640567
      53.500   17.702598
      55.500   17.762310
      57.500   17.818568
      59.500   17.871328
      61.500   17.921561
      63.500   17.968221
      65.500   18.011695
      67.500   18.052213
      69.500   18.090316
      71.500   18.126279
      73.500   18.160753
      75.500   18.192914
      77.500   18.223003
      79.500   18.251204
      81.500   18.277757
      83.500   18.302612
      85.500   18.325899
      87.500   18.347652
      89.500   18.366776
      91.500   18.384353
      93.500   18.399927
      95.500   18.413346
      97.500   18.426657
      99.500   18.439814
     104.500   18.470592
     109.500   18.500206
     114.500   18.527996
     119.500   18.554098
     124.500   18.580484
     129.500   18.605244
     134.500   18.627804
     139.500   18.649095
     144.500   18.669432
     149.500   18.688294
     154.500   18.703455
     159.500   18.716109
     164.500   18.728495
     169.500   18.740647
     174.500   18.752836
     179.500   18.764773
     184.500   18.775930
     189.500   18.786414
     194.500   18.795949
     199.500   18.805257
     204.500   18.814029
     209.500   18.822247
     214.500   18.829947
     219.500   18.837207
     224.500   18.844056
     229.500   18.850248
     234.500   18.856123
     239.500   18.861817
     244.500   18.866947
     249.500   18.871827
     254.500   18.876369
     259.500   18.880817
     264.500   18.885010
     269.500   18.888907
     274.500   18.892303
     279.500   18.895857
     284.500   18.898998
     289.500   18.901925
     294.500   18.904954
     299.500   18.907764
     304.500   18.910464
     309.500   18.912998
     314.500   18.915356
     319.500   18.917621
     324.500   18.916190
     329.500   18.920956
     334.500   18.925776
     339.500   18.921859
     344.500   18.925977
     349.500   18.931663
     354.500   18.926546
     359.500   18.932066
     364.500   18.935322
     369.500   18.931045
     374.500   18.937208
     379.500   18.938644
     384.500   18.934456
     389.500   18.939162
     394.500   18.943679
     399.500   18.936969
     404.500   18.940613
     409.500   18.944998
     414.500   18.941312
     419.500   18.941640
     424.500   18.945129
     429.500   18.947539
     434.500   18.943786
     439.500   18.945400
     444.500   18.947540
     449.500   18.948469
     454.500   18.947633
     459.500   18.947912
     464.500   18.948986
     469.500   18.949389
     474.500   18.949510
     479.500   18.949736
     484.500   18.950066
     489.500   18.950380
     494.500   18.948630
     499.500   18.949285
     504.500   18.952716
     509.500   18.951283
     514.500   18.947953
     519.500   18.951022
     524.500   18.953015
     529.500   18.955313
     534.500   18.950188
     539.500   18.951106
     544.500   18.952820
     549.500   18.953118
     554.500   18.952893
     559.500   18.953081
     564.500   18.953428
     569.500   18.953625
     574.500   18.953712
     579.500   18.953808
     584.500   18.953970
     589.500   18.954168
     594.500   18.954337
     599.500   18.954449
     604.500   18.954535
     609.500   18.954613
     614.500   18.954739
     619.500   18.954592
     624.500   18.954643
     629.500   18.954772
     634.500   18.954912
     639.500   18.955026
     644.500   18.955176
     649.500   18.955306
     654.500   18.955423
     659.500   18.955520
     664.500   18.955642
     669.500   18.955757
     674.500   18.955888
     679.500   18.955994
     684.500   18.955942
     689.500   18.956036
     694.500   18.956124
     699.500   18.956219
     704.500   18.956330
     709.500   18.956459
     714.500   18.956551
     719.500   18.956658
     724.500   18.956737
     729.500   18.956833
     734.500   18.956920
     739.500   18.957010
     744.500   18.957110
     749.500   18.957168
     754.500   18.957227
     759.500   18.957208
     764.500   18.957396
     769.500   18.957492
     774.500   18.957588
     779.500   18.957678
     784.500   18.957717
     789.500   18.957807
     794.500   18.957861
     799.500   18.957967
     804.500   18.958016
     809.500   18.958120
     814.500   18.958154
     819.500   18.958263
     824.500   18.958305
     829.500   18.958400
     834.500   18.958459
     839.500   18.958547
     844.500   18.958597
     849.500   18.958695
     854.500   18.958742
     859.500   18.958515
     864.500   18.958686
     869.500   18.958833
     874.500   18.959009
     879.500   18.959222
     884.500   18.959365
     889.500   18.959497
     894.500   18.959572
     899.500   18.959658
     904.500   18.959727
     909.500   18.959831
     914.500   18.959898
     919.500   18.959986
     924.500   18.960026
     929.500   18.960122
     934.500   18.960183
     939.500   18.960272
     944.500   18.960328
     949.500   18.960415
     954.500   18.960472
     959.500   18.960568
     964.500   18.960631
     969.500   18.960720
     974.500   18.960768
     979.500   18.960855
     984.500   18.960917
     989.500   18.961007
     994.500   18.961042
     999.500   18.961128
    1019.500   18.961388
    1039.500   18.961768
    1059.500   18.962054
    1079.500   18.962372
    1099.500   18.962668
    1119.500   18.962903
    1139.500   18.963285
    1159.500   18.963651
    1179.500   18.963983
    1199.500   18.964324
    1219.500   18.964661
    1239.500   18.964981
    1259.500   18.965282
    1279.500   18.965540
    1299.500   18.965773
    1319.500   18.966073
    1339.500   18.966341
    1359.500   18.966618
    1379.500   18.966935
    1399.500   18.967240
    1419.500   18.967507
    1439.500   18.967600
    1459.500   18.968099
    1479.500   18.968440
    1499.500   18.968776
    1519.500   18.969094
    1539.500   18.969414
    1559.500   18.969706
    1579.500   18.969983
    1599.500   18.970281
    1619.500   18.970543
    1639.500   18.970804
    1659.500   18.971072
    1679.500   18.971329
    1699.500   18.970860
    1719.500   18.971270
    1739.500   18.971582
    1759.500   18.971817
    1779.500   18.972142
    1799.500   18.972416
    1819.500   18.972624
    1839.500   18.972803
    1859.500   18.972954
    1879.500   18.973132
    1899.500   18.973357
    1919.500   18.973572
    1939.500   18.973794
    1959.500   18.973977
    1979.500   18.974184
    1999.500   18.974393
    2049.500   18.976210
    2099.500   18.970992
    2149.500   18.980015
    2199.500   18.978744
    2249.500   18.976846
    2299.500   18.978455
    2349.500   18.982187
    2399.500   18.975588
    2449.500   18.983274
    2499.500   18.982260
    2549.500   18.982718
    2599.500   18.981297
    2649.500   18.981139
    2699.500   18.981636
    2749.500   18.982116
    2799.500   18.982565
    2849.500   18.983045
    2899.500   18.983500
    2949.500   18.983991
    2999.500   18.984460
    3049.500   18.984923
    3099.500   18.985358
    3149.500   18.985804
    3199.500   18.986083
    3249.500   18.986512
    3299.500   18.986719
    3349.500   18.986747
    3399.500   18.987264
    3449.500   18.987734
    3499.500   18.988162
    3549.500   18.988531
    3599.500   18.988911
    3649.500   18.989291
    3699.500   18.989658
    3749.500   18.990006
    3799.500   18.990355
    3849.500   18.990629
    3899.500   18.991015
    3949.500   18.991323
    3999.500   18.991515
    4049.500   18.991811
    4099.500   18.992109
    4149.500   18.992402
    4199.500   18.992680
    4249.500   18.992971
    4299.500   18.993238
    4349.500   18.993494
    4399.500   18.993739
    4449.500   18.993977
    4499.500   18.994210
    4549.500   18.994421
    4599.500   18.994651
    4649.500   18.994869
    4699.500   18.995072
    4749.500   18.995272
    4799.500   18.995468
    4849.500   18.995659
    4899.500   18.995844
    4949.500   18.996036
    4999.500   18.996210
    5049.500   18.996384
    5099.500   18.996549
    5149.500   18.996712
    5199.500   18.996877
    5249.500   18.997028
    5299.500   18.997175
    5349.500   18.997319
    5399.500   18.997460
    5449.500   18.997595
    5499.500   18.997727
    5549.500   18.997857
    5599.500   18.997984
    5649.500   18.998107
    5699.500   18.998228
    5749.500   18.998348
    5799.500   18.998464
    5849.500   18.998575
    5899.500   18.998683
    5949.500   18.998787
    5999.500   18.998890
    6049.500   18.998989
    6099.500   18.999086
    6149.500   18.999180
    6199.500   18.999271
    6249.500   18.999360
    6299.500   18.999459
    6349.500   18.999543
    6399.500   18.999621
    6449.500   18.999698
    6499.500   18.999774
    6549.500   18.999848
    6599.500   18.999918
    6649.500   18.999989
    6699.500   19.000057
    6749.500   19.000124
    6799.500   19.000189
    6849.500   19.000249
    6899.500   19.000311
    6949.500   19.000373
    6999.500   19.000432
    7049.500   19.000489
    7099.500   19.000545
    7149.500   19.000599
    7199.500   19.000651
    7249.500   19.000701
    7299.500   19.000750
    7349.500   19.000798
    7399.500   19.000844
    7449.500   19.000889
    7499.500   19.000933
    7549.500   19.000975
    7599.500   19.001017
    7649.500   19.001058
    7699.500   19.001096
    7749.500   19.001134
    7799.500   19.001227
    7849.500   19.001414
    7899.500   19.001382
    7949.500   19.001539
    7999.500   19.001452
    8049.500   19.001430
    8099.500   19.001432
    8149.500   19.001443
    8199.500   19.001459
    8249.500   19.001478
    8299.500   19.001498
    8349.500   19.001519
    8399.500   19.001540
    8449.500   19.001561
    8499.500   19.001582
    8549.500   19.001602
    8599.500   19.001622
    8649.500   19.001641
    8699.500   19.001659
    8749.500   19.001677
    8799.500   19.001695
    8849.500   19.001712
    8899.500   19.001728
    8949.500   19.001744
    8999.500   19.001760
    9049.500   19.001775
    9099.500   19.001790
    9149.500   19.001804
    9199.500   19.001817
    9249.500   19.001830
    9299.500   19.001843
    9349.500   19.001856
    9399.500   19.001868
    9449.500   19.001879
    9499.500   19.001891
    9549.500   19.001902
    9599.500   19.001912
    9649.500   19.001923
    9699.500   19.001933
    9749.500   19.001942
    9799.500   19.001952
    9849.500   19.001961
    9899.500   19.001970
    9949.500   19.001978
    9999.500   19.001987
